285.00000,109385.40625
286.00000,109385.40625
287.00000,109385.40625
288.00000,109385.40625
289.00000,109385.40625
290.00000,103666.20313
291.00000,100992.19531
292.00000,101512.82813
293.00000,104906.43750
294.00000,110298.97656
295.00000,117677.62500
296.00000,126630.26563
297.00000,136532.93750
298.00000,147361.79688
299.00000,158806.51563
300.00000,170547.53125
301.00000,182331.07813
302.00000,194302.23438
303.00000,206717.31250
304.00000,219243.92188
305.00000,232099.28125
306.00000,245550.06250
307.00000,259183.75000
308.00000,273130.15625
309.00000,287290.31250
310.00000,301805.37500
311.00000,316898.03125
312.00000,332392.28125
313.00000,347634.18750
314.00000,362776.43750
315.00000,377735.18750
316.00000,392028.62500
317.00000,405967.93750
318.00000,419732.21875
319.00000,432632.78125
320.00000,444938.46875
321.00000,456735.28125
322.00000,467984.15625
323.00000,478603.96875
324.00000,488563.53125
325.00000,498107.09375
326.00000,506562.37500
327.00000,513674.06250
328.00000,519964.65625
329.00000,525595.81250
330.00000,530107.06250
331.00000,533401.50000
332.00000,535777.43750
333.00000,537532.75000
334.00000,537834.50000
335.00000,537147.06250
336.00000,535682.31250
337.00000,533023.43750
338.00000,529315.75000
339.00000,524995.56250
340.00000,520143.59375
341.00000,514755.00000
342.00000,508706.31250
343.00000,501742.09375
344.00000,493997.56250
345.00000,485397.50000
346.00000,476131.81250
347.00000,466925.40625
348.00000,457944.34375
349.00000,448328.93750
350.00000,438557.65625
351.00000,428561.34375
352.00000,417978.65625
353.00000,407216.12500
354.00000,396444.84375
355.00000,385820.56250
356.00000,375290.09375
357.00000,364540.56250
358.00000,353583.03125
359.00000,342630.96875
360.00000,331580.75000
361.00000,320563.12500
362.00000,309924.65625
363.00000,299799.31250
364.00000,289769.53125
365.00000,279969.06250
366.00000,270308.37500
367.00000,260617.60938
368.00000,251025.87500
369.00000,241743.15625
370.00000,232812.46875
371.00000,224193.06250
372.00000,215734.39063
373.00000,207503.48438
374.00000,199411.07813
375.00000,191401.32813
376.00000,183558.00000
377.00000,176124.62500
378.00000,168997.71875
379.00000,162099.34375
380.00000,155455.81250
381.00000,149035.07813
382.00000,142685.70313
383.00000,136414.40625
384.00000,130253.14844
385.00000,124327.93750
386.00000,118612.07031
387.00000,113136.03906
388.00000,107958.96094
389.00000,102960.60938
390.00000,98164.29688
391.00000,93617.98438
392.00000,89196.39844
393.00000,85034.14844
394.00000,81047.00781
395.00000,77129.32031
396.00000,73343.65625
397.00000,69693.96875
398.00000,66162.14063
399.00000,62788.43750
400.00000,59605.30859
401.00000,56672.80469
402.00000,53927.19531
403.00000,51300.89063
404.00000,48828.56250
405.00000,46487.18359
406.00000,44284.57422
407.00000,42185.33594
408.00000,40210.92578
409.00000,38358.11328
410.00000,36590.70313
411.00000,34857.13281
412.00000,33226.69922
413.00000,31663.24414
414.00000,30153.87109
415.00000,28745.01563
416.00000,27443.01172
417.00000,26198.05273
418.00000,25016.48828
419.00000,23889.77344
420.00000,22807.81836
421.00000,21767.14648
422.00000,20785.96289
423.00000,19852.08398
424.00000,18964.27930
425.00000,18117.83789
426.00000,17304.09375
427.00000,16538.66602
428.00000,15790.15234
429.00000,15064.60254
430.00000,14389.09375
431.00000,13750.92480
432.00000,13145.11816
433.00000,12579.99316
434.00000,12036.00781
435.00000,11506.55469
436.00000,10991.33594
437.00000,10512.30859
438.00000,10048.13672
439.00000,9623.06152
440.00000,9229.89551
441.00000,8848.63965
442.00000,8482.74023
443.00000,8127.86963
444.00000,7778.20703
445.00000,7456.87354
446.00000,7151.28955
447.00000,7151.28955
448.00000,7151.28955
449.00000,7151.28955
450.00000,7151.28955
